-0.102
-0.102
-0.102
-0.102
-0.1
-0.1
-0.1
-0.1
-0.105
-0.105
-0.105
-0.105
-0.114
-0.114
-0.114
-0.114
-0.127
-0.127
-0.127
-0.127
-0.146
-0.146
-0.146
-0.146
-0.162
-0.162
-0.162
-0.162
-0.182
-0.182
-0.182
-0.182
-0.203
-0.203
-0.203
-0.203
-0.225
-0.225
-0.225
-0.225
-0.248
-0.248
-0.248
-0.248
-0.271
-0.271
-0.271
-0.271
-0.292
-0.292
-0.292
-0.292
-0.314
-0.314
-0.314
-0.314
-0.335
-0.335
-0.335
-0.335
-0.35
-0.35
-0.35
-0.35
-0.367
-0.367
-0.367
-0.367
-0.385
-0.385
-0.385
-0.385
-0.4
-0.4
-0.4
-0.4
-0.411
-0.411
-0.411
-0.411
-0.421
-0.421
-0.421
-0.421
-0.43
-0.43
-0.43
-0.43
-0.44
-0.44
-0.44
-0.44
-0.442
-0.442
-0.442
-0.442
-0.446
-0.446
-0.446
-0.446
-0.446
-0.446
-0.446
-0.446
-0.442
-0.442
-0.442
-0.442
-0.438
-0.438
-0.438
-0.438
-0.428
-0.428
-0.428
-0.428
-0.415
-0.415
-0.415
-0.415
-0.396
-0.396
-0.396
-0.396
-0.369
-0.369
-0.369
-0.369
-0.335
-0.335
-0.335
-0.335
-0.288
-0.288
-0.288
-0.288
-0.236
-0.236
-0.236
-0.236
-0.167
-0.167
-0.167
-0.167
-0.092
-0.092
-0.092
-0.092
-0.011
-0.011
-0.011
-0.011
0.073
0.073
0.073
0.073
0.162
0.162
0.162
0.162
0.248
0.248
0.248
0.248
0.331
0.331
0.331
0.331
0.402
0.402
0.402
0.402
0.465
0.465
0.465
0.465
0.515
0.515
0.515
0.515
0.549
0.549
0.549
0.549
0.573
0.573
0.573
0.573
0.583
0.583
0.583
0.583
0.573
0.573
0.573
0.573
0.551
0.551
0.551
0.551
0.521
0.521
0.521
0.521
0.476
0.476
0.476
0.476
0.419
0.419
0.419
0.419
0.357
0.357
0.357
0.357
0.286
0.286
0.286
0.286
0.213
0.213
0.213
0.213
0.139
0.139
0.139
0.139
0.064
0.064
0.064
0.064
-0.006
-0.006
-0.006
-0.006
-0.068
-0.068
-0.068
-0.068
-0.121
-0.121
-0.121
-0.121
-0.166
-0.166
-0.166
-0.166
-0.198
-0.198
-0.198
-0.198
-0.219
-0.219
-0.219
-0.219
-0.229
-0.229
-0.229
-0.229
-0.233
-0.233
-0.233
-0.233
-0.225
-0.225
-0.225
-0.225
-0.217
-0.217
-0.217
-0.217
-0.202
-0.202
-0.202
-0.202
-0.191
-0.191
-0.191
-0.191
-0.177
-0.177
-0.177
-0.177
-0.166
-0.166
-0.166
-0.166
-0.16
-0.16
-0.16
-0.16
-0.155
-0.155
-0.155
-0.155
-0.158
-0.158
-0.158
-0.158
-0.166
-0.166
-0.166
-0.166
-0.175
-0.175
-0.175
-0.175
-0.189
-0.189
-0.189
-0.189
-0.207
-0.207
-0.207
-0.207
-0.227
-0.227
-0.227
-0.227
-0.248
-0.248
-0.248
-0.248
-0.269
-0.269
-0.269
-0.269
-0.296
-0.296
-0.296
-0.296
-0.319
-0.319
-0.319
-0.319
-0.342
-0.342
-0.342
-0.342
-0.365
-0.365
-0.365
-0.365
-0.39
-0.39
-0.39
-0.39
-0.407
-0.407
-0.407
-0.407
-0.428
-0.428
-0.428
-0.428
-0.448
-0.448
-0.448
-0.448
-0.465
-0.465
-0.465
-0.465
-0.478
-0.478
-0.478
-0.478
-0.494
-0.494
-0.494
-0.494
-0.505
-0.505
-0.505
-0.505
-0.515
-0.515
-0.515
-0.515
-0.526
-0.526
-0.526
-0.526
-0.557
-0.557
-0.557
-0.557
-0.561
-0.561
-0.561
-0.561
-0.563
-0.563
-0.563
-0.563
-0.565
-0.565
-0.565
-0.565
-0.561
-0.561
-0.561
-0.561
-0.555
-0.555
-0.555
-0.555
-0.545
-0.545
-0.545
-0.545
-0.53
-0.53
-0.53
-0.53
-0.51
-0.51
-0.51
-0.51
-0.481
-0.481
-0.481
-0.481
-0.445
-0.445
-0.445
-0.445
-0.399
-0.399
-0.399
-0.399
-0.341
-0.341
-0.341
-0.341
-0.275
-0.275
-0.275
-0.275
-0.196
-0.196
-0.196
-0.196
-0.114
-0.114
-0.114
-0.114
-0.025
-0.025
-0.025
-0.025
0.06
0.06
0.06
0.06
0.145
0.145
0.145
0.145
0.226
0.226
0.226
0.226
0.294
0.294
0.294
0.294
0.352
0.352
0.352
0.352
0.398
0.398
0.398
0.398
0.427
0.427
0.427
0.427
0.447
0.447
0.447
0.447
0.447
0.447
0.447
0.447
0.435
0.435
0.435
0.435
0.408
0.408
0.408
0.408
0.373
0.373
0.373
0.373
0.325
0.325
0.325
0.325
0.267
0.267
0.267
0.267
0.201
0.201
0.201
0.201
0.13
0.13
0.13
0.13
0.056
0.056
0.056
0.056
-0.018
-0.018
-0.018
-0.018
-0.089
-0.089
-0.089
-0.089
-0.155
-0.155
-0.155
-0.155
-0.216
-0.216
-0.216
-0.216
-0.265
-0.265
-0.265
-0.265
-0.303
-0.303
-0.303
-0.303
-0.331
-0.331
-0.331
-0.331
-0.346
-0.346
-0.346
-0.346
-0.352
-0.352
-0.352
-0.352
-0.348
-0.348
-0.348
-0.348
-0.337
-0.337
-0.337
-0.337
-0.321
-0.321
-0.321
-0.321
-0.305
-0.305
-0.305
-0.305
-0.288
-0.288
-0.288
-0.288
-0.277
-0.277
-0.277
-0.277
-0.263
-0.263
-0.263
-0.263
-0.258
-0.258
-0.258
-0.258
-0.254
-0.254
-0.254
-0.254
-0.254
-0.254
-0.254
-0.254
-0.263
-0.263
-0.263
-0.263
-0.271
-0.271
-0.271
-0.271
-0.282
-0.282
-0.282
-0.282
-0.3
-0.3
-0.3
-0.3
-0.319
-0.319
-0.319
-0.319
-0.339
-0.339
-0.339
-0.339
-0.359
-0.359
-0.359
-0.359
-0.383
-0.383
-0.383
-0.383
-0.406
-0.406
-0.406
-0.406
-0.427
-0.427
-0.427
-0.427
-0.449
-0.449
-0.449
-0.449
-0.467
-0.467
-0.467
-0.467
-0.485
-0.485
-0.485
-0.485
-0.502
-0.502
-0.502
-0.502
-0.517
-0.517
-0.517
-0.517
-0.534
-0.534
-0.534
-0.534
-0.546
-0.546
-0.546
-0.546
-0.557
-0.557
-0.557
-0.557
-0.571
-0.571
-0.571
-0.571
-0.576
-0.576
-0.576
-0.576
-0.584
-0.584
-0.584
-0.584
-0.589
-0.589
-0.589
-0.589
-0.589
-0.589
-0.589
-0.589
-0.591
-0.591
-0.591
-0.591
-0.589
-0.589
-0.589
-0.589
-0.586
-0.586
-0.586
-0.586
-0.576
-0.576
-0.576
-0.576
-0.565
-0.565
-0.565
-0.565
-0.551
-0.551
-0.551
-0.551
-0.53
-0.53
-0.53
-0.53
-0.5
-0.5
-0.5
-0.5
-0.467
-0.467
-0.467
-0.467
-0.423
-0.423
-0.423
-0.423
-0.369
-0.369
-0.369
-0.369
-0.306
-0.306
-0.306
-0.306
-0.233
-0.233
-0.233
-0.233
-0.152
-0.152
-0.152
-0.152
-0.071
-0.071
-0.071
-0.071
0.017
0.017
0.017
0.017
0.102
0.102
0.102
0.102
0.181
0.181
0.181
0.181
0.253
0.253
0.253
0.253
0.315
0.315
0.315
0.315
0.367
0.367
0.367
0.367
0.402
0.402
0.402
0.402
0.424
0.424
0.424
0.424
0.433
0.433
0.433
0.433
0.429
0.429
0.429
0.429
0.409
0.409
0.409
0.409
0.379
0.379
0.379
0.379
0.336
0.336
0.336
0.336
0.284
0.284
0.284
0.284
0.225
0.225
0.225
0.225
0.157
0.157
0.157
0.157
0.087
0.087
0.087
0.087
0.013
0.013
0.013
0.013
-0.054
-0.054
-0.054
-0.054
-0.12
-0.12
-0.12
-0.12
-0.18
-0.18
-0.18
-0.18
-0.23
-0.23
-0.23
-0.23
-0.267
-0.267
-0.267
-0.267
-0.293
-0.293
-0.293
-0.293
-0.31
-0.31
-0.31
-0.31
-0.316
-0.316
-0.316
-0.316
-0.314
-0.314
-0.314
-0.314
-0.305
-0.305
-0.305
-0.305
-0.291
-0.291
-0.291
-0.291
-0.273
-0.273
-0.273
-0.273
-0.258
-0.258
-0.258
-0.258
-0.242
-0.242
-0.242
-0.242
-0.23
-0.23
-0.23
-0.23
-0.222
-0.222
-0.222
-0.222
-0.216
-0.216
-0.216
-0.216
-0.216
-0.216
-0.216
-0.216
-0.216
-0.216
-0.216
-0.216
-0.21
-0.21
-0.21
-0.21
-0.223
-0.223
-0.223
-0.223
-0.236
-0.236
-0.236
-0.236
-0.253
-0.253
-0.253
-0.253
-0.274
-0.274
-0.274
-0.274
-0.292
-0.292
-0.292
-0.292
-0.311
-0.311
-0.311
-0.311
-0.334
-0.334
-0.334
-0.334
-0.354
-0.354
-0.354
-0.354
-0.379
-0.379
-0.379
-0.379
-0.398
-0.398
-0.398
-0.398
-0.416
-0.416
-0.416
-0.416
-0.433
-0.433
-0.433
-0.433
-0.45
-0.45
-0.45
-0.45
-0.463
-0.463
-0.463
-0.463
-0.478
-0.478
-0.478
-0.478
-0.489
-0.489
-0.489
-0.489
-0.498
-0.498
-0.498
-0.498
-0.508
-0.508
-0.508
-0.508
-0.515
-0.515
-0.515
-0.515
-0.519
-0.519
-0.519
-0.519
-0.521
-0.521
-0.521
-0.521
-0.523
-0.523
-0.523
-0.523
-0.523
-0.523
-0.523
-0.523
-0.521
-0.521
-0.521
-0.521
-0.513
-0.513
-0.513
-0.513
-0.508
-0.508
-0.508
-0.508
-0.497
-0.497
-0.497
-0.497
-0.48
-0.48
-0.48
-0.48
-0.458
-0.458
-0.458
-0.458
-0.429
-0.429
-0.429
-0.429
-0.392
-0.392
-0.392
-0.392
-0.347
-0.347
-0.347
-0.347
-0.292
-0.292
-0.292
-0.292
-0.227
-0.227
-0.227
-0.227
-0.153
-0.153
-0.153
-0.153
-0.071
-0.071
-0.071
-0.071
0.013
0.013
0.013
0.013
0.098
0.098
0.098
0.098
0.18
0.18
0.18
0.18
0.255
0.255
0.255
0.255
0.325
0.325
0.325
0.325
0.383
0.383
0.383
0.383
0.429
0.429
0.429
0.429
0.462
0.462
0.462
0.462
0.48
0.48
0.48
0.48
0.487
0.487
0.487
0.487
0.478
0.478
0.478
0.478
0.456
0.456
0.456
0.456
0.422
0.422
0.422
0.422
0.377
0.377
0.377
0.377
0.323
0.323
0.323
0.323
0.261
0.261
0.261
0.261
0.193
0.193
0.193
0.193
0.126
0.126
0.126
0.126
0.057
0.057
0.057
0.057
-0.011
-0.011
-0.011
-0.011
-0.075
-0.075
-0.075
-0.075
-0.13
-0.13
-0.13
-0.13
-0.174
-0.174
-0.174
-0.174
-0.21
-0.21
-0.21
-0.21
-0.234
-0.234
-0.234
-0.234
-0.247
-0.247
-0.247
-0.247
-0.249
-0.249
-0.249
-0.249
-0.234
-0.234
-0.234
-0.234
-0.225
-0.225
-0.225
-0.225
-0.208
-0.208
-0.208
-0.208
-0.192
-0.192
-0.192
-0.192
-0.176
-0.176
-0.176
-0.176
-0.16
-0.16
-0.16
-0.16
-0.148
-0.148
-0.148
-0.148
-0.141
-0.141
-0.141
-0.141
-0.137
-0.137
-0.137
-0.137
-0.137
-0.137
-0.137
-0.137
-0.142
-0.142
-0.142
-0.142
-0.15
-0.15
-0.15
-0.15
-0.164
-0.164
-0.164
-0.164
-0.178
-0.178
-0.178
-0.178
-0.195
-0.195
-0.195
-0.195
-0.217
-0.217
-0.217
-0.217
-0.238
-0.238
-0.238
-0.238
-0.261
-0.261
-0.261
-0.261
-0.281
-0.281
-0.281
-0.281
-0.306
-0.306
-0.306
-0.306
-0.329
-0.329
-0.329
-0.329
-0.349
-0.349
-0.349
-0.349
-0.367
-0.367
-0.367
-0.367
-0.385
-0.385
-0.385
-0.385
-0.404
-0.404
-0.404
-0.404
-0.416
-0.416
-0.416
-0.416
-0.429
-0.429
-0.429
-0.429
-0.441
-0.441
-0.441
-0.441
-0.449
-0.449
-0.449
-0.449
-0.458
-0.458
-0.458
-0.458
-0.464
-0.464
-0.464
-0.464
-0.464
-0.464
-0.464
-0.464
-0.465
-0.465
-0.465
-0.465
-0.467
-0.467
-0.467
-0.467
-0.465
-0.465
-0.465
-0.465
-0.462
-0.462
-0.462
-0.462
-0.454
-0.454
-0.454
-0.454
-0.447
-0.447
-0.447
-0.447
-0.437
-0.437
-0.437
-0.437
-0.42
-0.42
-0.42
-0.42
-0.398
-0.398
-0.398
-0.398
-0.369
-0.369
-0.369
-0.369
-0.332
-0.332
-0.332
-0.332
-0.285
-0.285
-0.285
-0.285
-0.233
-0.233
-0.233
-0.233
-0.167
-0.167
-0.167
-0.167
-0.092
-0.092
-0.092
-0.092
-0.013
-0.013
-0.013
-0.013
0.068
0.068
0.068
0.068
0.151
0.151
0.151
0.151
0.233
0.233
0.233
0.233
0.309
0.309
0.309
0.309
0.375
0.375
0.375
0.375
0.429
0.429
0.429
0.429
0.474
0.474
0.474
0.474
0.504
0.504
0.504
0.504
0.519
0.519
0.519
0.519
0.521
0.521
0.521
0.521
0.51
0.51
0.51
0.51
0.485
0.485
0.485
0.485
0.45
0.45
0.45
0.45
0.403
0.403
0.403
0.403
0.348
0.348
0.348
0.348
0.285
0.285
0.285
0.285
0.236
0.236
0.236
0.236
0.164
0.164
0.164
0.164
0.091
0.091
0.091
0.091
0.025
0.025
0.025
0.025
-0.038
-0.038
-0.038
-0.038
-0.093
-0.093
-0.093
-0.093
-0.139
-0.139
-0.139
-0.139
-0.172
-0.172
-0.172
-0.172
-0.193
-0.193
-0.193
-0.193
-0.204
-0.204
-0.204
-0.204
-0.206
-0.206
-0.206
-0.206
-0.2
-0.2
-0.2
-0.2
-0.189
-0.189
-0.189
-0.189
-0.172
-0.172
-0.172
-0.172
-0.154
-0.154
-0.154
-0.154
-0.138
-0.138
-0.138
-0.138
-0.124
-0.124
-0.124
-0.124
-0.115
-0.115
-0.115
-0.115
-0.107
-0.107
-0.107
-0.107
-0.105
-0.105
-0.105
-0.105
-0.107
-0.107
-0.107
-0.107
-0.111
-0.111
-0.111
-0.111
-0.12
-0.12
-0.12
-0.12
-0.134
-0.134
-0.134
-0.134
-0.15
-0.15
-0.15
-0.15
-0.168
-0.168
-0.168
-0.168
-0.187
-0.187
-0.187
-0.187
-0.21
-0.21
-0.21
-0.21
-0.233
-0.233
-0.233
-0.233
-0.256
-0.256
-0.256
-0.256
-0.275
-0.275
-0.275
-0.275
-0.297
-0.297
-0.297
-0.297
-0.317
-0.317
-0.317
-0.317
-0.338
-0.338
-0.338
-0.338
-0.356
-0.356
-0.356
-0.356
-0.372
-0.372
-0.372
-0.372
-0.387
-0.387
-0.387
-0.387
-0.399
-0.399
-0.399
-0.399
-0.41
-0.41
-0.41
-0.41
-0.417
-0.417
-0.417
-0.417
-0.427
-0.427
-0.427
-0.427
-0.429
-0.429
-0.429
-0.429
-0.433
-0.433
-0.433
-0.433
-0.436
-0.436
-0.436
-0.436
-0.434
-0.434
-0.434
-0.434
-0.433
-0.433
-0.433
-0.433
-0.431
-0.431
-0.431
-0.431
-0.423
-0.423
-0.423
-0.423
-0.415
-0.415
-0.415
-0.415
-0.401
-0.401
-0.401
-0.401
-0.382
-0.382
-0.382
-0.382
-0.358
-0.358
-0.358
-0.358
-0.324
-0.324
-0.324
-0.324
-0.284
-0.284
-0.284
-0.284
-0.234
-0.234
-0.234
-0.234
-0.172
-0.172
-0.172
-0.172
-0.105
-0.105
-0.105
-0.105
-0.027
-0.027
-0.027
-0.027
0.053
0.053
0.053
0.053
0.139
0.139
0.139
0.139
0.219
0.219
0.219
0.219
0.301
0.301
0.301
0.301
0.373
0.373
0.373
0.373
0.441
0.441
0.441
0.441
0.484
0.484
0.484
0.484
0.524
0.524
0.524
0.524
0.551
0.551
0.551
0.551
0.565
0.565
0.565
0.565
0.562
0.562
0.562
0.562
0.549
0.549
0.549
0.549
0.522
0.522
0.522
0.522
0.484
0.484
0.484
0.484
0.433
0.433
0.433
0.433
0.376
0.376
0.376
0.376
0.313
0.313
0.313
0.313
0.244
0.244
0.244
0.244
0.172
0.172
0.172
0.172
0.101
0.101
0.101
0.101
0.033
0.033
0.033
0.033
-0.025
-0.025
-0.025
-0.025
-0.08
-0.08
-0.08
-0.08
-0.122
-0.122
-0.122
-0.122
-0.152
-0.152
-0.152
-0.152
-0.175
-0.175
-0.175
-0.175
-0.185
-0.185
-0.185
-0.185
-0.183
-0.183
-0.183
-0.183
-0.175
-0.175
-0.175
-0.175
-0.164
-0.164
-0.164
-0.164
-0.15
-0.15
-0.15
-0.15
-0.132
-0.132
-0.132
-0.132
-0.116
-0.116
-0.116
-0.116
-0.103
-0.103
-0.103
-0.103
-0.091
-0.091
-0.091
-0.091
-0.084
-0.084
-0.084
-0.084
-0.078
-0.078
-0.078
-0.078
-0.082
-0.082
-0.082
-0.082
-0.086
-0.086
-0.086
-0.086
-0.095
-0.095
-0.095
-0.095
-0.106
-0.106
-0.106
-0.106
-0.118
-0.118
-0.118
-0.118
-0.137
-0.137
-0.137
-0.137
-0.152
-0.152
-0.152
-0.152
-0.175
-0.175
-0.175
-0.175
-0.195
-0.195
-0.195
-0.195
-0.213
-0.213
-0.213
-0.213
-0.234
-0.234
-0.234
-0.234
-0.256
-0.256
-0.256
-0.256
-0.271
-0.271
-0.271
-0.271
-0.289
-0.289
-0.289
-0.289
-0.307
-0.307
-0.307
-0.307
-0.32
-0.32
-0.32
-0.32
-0.334
-0.334
-0.334
-0.334
-0.347
-0.347
-0.347
-0.347
-0.356
-0.356
-0.356
-0.356
-0.362
-0.362
-0.362
-0.362
-0.371
-0.371
-0.371
-0.371
-0.373
-0.373
-0.373
-0.373
-0.378
-0.378
-0.378
-0.378
-0.381
-0.381
-0.381
-0.381
-0.379
-0.379
-0.379
-0.379
-0.376
-0.376
-0.376
-0.376
-0.373
-0.373
-0.373
-0.373
-0.362
-0.362
-0.362
-0.362
-0.352
-0.352
-0.352
-0.352
-0.336
-0.336
-0.336
-0.336
-0.315
-0.315
-0.315
-0.315
-0.287
-0.287
-0.287
-0.287
-0.247
-0.247
-0.247
-0.247
-0.206
-0.206
-0.206
-0.206
-0.149
-0.149
-0.149
-0.149
-0.083
-0.083
-0.083
-0.083
-0.002
-0.002
-0.002
-0.002
0.081
0.081
0.081
0.081
0.171
0.171
0.171
0.171
0.26
0.26
0.26
0.26
0.348
0.348
0.348
0.348
0.432
0.432
0.432
0.432
0.505
0.505
0.505
0.505
0.57
0.57
0.57
0.57
0.619
0.619
0.619
0.619
0.654
0.654
0.654
0.654
0.674
0.674
0.674
0.674
0.678
0.678
0.678
0.678
0.672
0.672
0.672
0.672
0.648
0.648
0.648
0.648
0.613
0.613
0.613
0.613
0.568
0.568
0.568
0.568
0.515
0.515
0.515
0.515
0.45
0.45
0.45
0.45
0.38
0.38
0.38
0.38
0.308
0.308
0.308
0.308
0.234
0.234
0.234
0.234
0.163
0.163
0.163
0.163
0.092
0.092
0.092
0.092
0.035
0.035
0.035
0.035
-0.018
-0.018
-0.018
-0.018
-0.055
-0.055
-0.055
-0.055
-0.086
-0.086
-0.086
-0.086
-0.102
-0.102
-0.102
-0.102
-0.108
-0.108
-0.108
-0.108
-0.104
-0.104
-0.104
-0.104
-0.096
-0.096
-0.096
-0.096
-0.083
-0.083
-0.083
-0.083
-0.069
-0.069
-0.069
-0.069
-0.053
-0.053
-0.053
-0.053
-0.039
-0.039
-0.039
-0.039
-0.029
-0.029
-0.029
-0.029
-0.021
-0.021
-0.021
-0.021
-0.019
-0.019
-0.019
-0.019
-0.021
-0.021
-0.021
-0.021
-0.028
-0.028
-0.028
-0.028
-0.041
-0.041
-0.041
-0.041
-0.053
-0.053
-0.053
-0.053
-0.07
-0.07
-0.07
-0.07
-0.09
-0.09
-0.09
-0.09
-0.11
-0.11
-0.11
-0.11
-0.132
-0.132
-0.132
-0.132
-0.153
-0.153
-0.153
-0.153
-0.174
-0.174
-0.174
-0.174
-0.195
-0.195
-0.195
-0.195
-0.218
-0.218
-0.218
-0.218
-0.237
-0.237
-0.237
-0.237
-0.259
-0.259
-0.259
-0.259
-0.275
-0.275
-0.275
-0.275
-0.294
-0.294
-0.294
-0.294
-0.31
-0.31
-0.31
-0.31
-0.324
-0.324
-0.324
-0.324
-0.336
-0.336
-0.336
-0.336
-0.347
-0.347
-0.347
-0.347
-0.353
-0.353
-0.353
-0.353
-0.363
-0.363
-0.363
-0.363
-0.365
-0.365
-0.365
-0.365
-0.415
-0.415
-0.415
-0.415
-0.418
-0.418
-0.418
-0.418
-0.413
-0.413
-0.413
-0.413
-0.409
-0.409
-0.409
-0.409
-0.406
-0.406
-0.406
-0.406
-0.396
-0.396
-0.396
-0.396
-0.38
-0.38
-0.38
-0.38
-0.359
-0.359
-0.359
-0.359
-0.332
-0.332
-0.332
-0.332
-0.297
-0.297
-0.297
-0.297
-0.251
-0.251
-0.251
-0.251
-0.193
-0.193
-0.193
-0.193
-0.127
-0.127
-0.127
-0.127
-0.052
-0.052
-0.052
-0.052
0.032
0.032
0.032
0.032
0.12
0.12
0.12
0.12
0.208
0.208
0.208
0.208
0.297
0.297
0.297
0.297
0.378
0.378
0.378
0.378
0.452
0.452
0.452
0.452
0.512
0.512
0.512
0.512
0.556
0.556
0.556
0.556
0.59
0.59
0.59
0.59
0.61
0.61
0.61
0.61
0.61
0.61
0.61
0.61
0.6
0.6
0.6
0.6
0.572
0.572
0.572
0.572
0.538
0.538
0.538
0.538
0.488
0.488
0.488
0.488
0.429
0.429
0.429
0.429
0.361
0.361
0.361
0.361
0.287
0.287
0.287
0.287
0.212
0.212
0.212
0.212
0.135
0.135
0.135
0.135
0.056
0.056
0.056
0.056
-0.016
-0.016
-0.016
-0.016
-0.081
-0.081
-0.081
-0.081
-0.135
-0.135
-0.135
-0.135
-0.175
-0.175
-0.175
-0.175
-0.209
-0.209
-0.209
-0.209
-0.227
-0.227
-0.227
-0.227
-0.239
-0.239
-0.239
-0.239
-0.239
-0.239
-0.239
-0.239
-0.231
-0.231
-0.231
-0.231
-0.219
-0.219
-0.219
-0.219
-0.205
-0.205
-0.205
-0.205
-0.191
-0.191
-0.191
-0.191
-0.177
-0.177
-0.177
-0.177
-0.167
-0.167
-0.167
-0.167
-0.161
-0.161
-0.161
-0.161
-0.161
-0.161
-0.161
-0.161
-0.165
-0.165
-0.165
-0.165
-0.169
-0.169
-0.169
-0.169
-0.183
-0.183
-0.183
-0.183
-0.197
-0.197
-0.197
-0.197
-0.215
-0.215
-0.215
-0.215
-0.235
-0.235
-0.235
-0.235
-0.257
-0.257
-0.257
-0.257
-0.283
-0.283
-0.283
-0.283
-0.305
-0.305
-0.305
-0.305
-0.332
-0.332
-0.332
-0.332
-0.353
-0.353
-0.353
-0.353
-0.382
-0.382
-0.382
-0.382
-0.404
-0.404
-0.404
-0.404
-0.467
-0.467
-0.467
-0.467
-0.489
-0.489
-0.489
-0.489
-0.507
-0.507
-0.507
-0.507
-0.527
-0.527
-0.527
-0.527
-0.543
-0.543
-0.543
-0.543
-0.557
-0.557
-0.557
-0.557
-0.571
-0.571
-0.571
-0.571
-0.579
-0.579
-0.579
-0.579
-0.591
-0.591
-0.591
-0.591
-0.597
-0.597
-0.597
-0.597
-0.601
-0.601
-0.601
-0.601
-0.605
-0.605
-0.605
-0.605
-0.607
-0.607
-0.607
-0.607
-0.605
-0.605
-0.605
-0.605
-0.601
-0.601
-0.601
-0.601
-0.591
-0.591
-0.591
-0.591
-0.581
-0.581
-0.581
-0.581
-0.563
-0.563
-0.563
-0.563
-0.541
-0.541
-0.541
-0.541
-0.509
-0.509
-0.509
-0.509
-0.467
-0.467
-0.467
-0.467
-0.419
-0.419
-0.419
-0.419
-0.357
-0.357
-0.357
-0.357
-0.287
-0.287
-0.287
-0.287
-0.205
-0.205
-0.205
-0.205
-0.122
-0.122
-0.122
-0.122
-0.032
-0.032
-0.032
-0.032
0.058
0.058
0.058
0.058
0.145
0.145
0.145
0.145
0.224
0.224
0.224
0.224
0.295
0.295
0.295
0.295
0.351
0.351
0.351
0.351
0.399
0.399
0.399
0.399
0.427
0.427
0.427
0.427
0.439
0.439
0.439
0.439
0.441
0.441
0.441
0.441
0.425
0.425
0.425
0.425
0.397
0.397
0.397
0.397
0.357
0.357
0.357
0.357
0.307
0.307
0.307
0.307
0.247
0.247
0.247
0.247
0.177
0.177
0.177
0.177
0.105
0.105
0.105
0.105
0.032
0.032
0.032
0.032
-0.044
-0.044
-0.044
-0.044
-0.114
-0.114
-0.114
-0.114
-0.18
-0.18
-0.18
-0.18
-0.235
-0.235
-0.235
-0.235
-0.283
-0.283
-0.283
-0.283
-0.32
-0.32
-0.32
-0.32
-0.342
-0.342
-0.342
-0.342
-0.355
-0.355
-0.355
-0.355
-0.357
-0.357
-0.357
-0.357
-0.351
-0.351
-0.351
-0.351
-0.344
-0.344
-0.344
-0.344
-0.328
-0.328
-0.328
-0.328
-0.309
-0.309
-0.309
-0.309
-0.297
-0.297
-0.297
-0.297
-0.281
-0.281
-0.281
-0.281
-0.272
-0.272
-0.272
-0.272
-0.266
-0.266
-0.266
-0.266
-0.264
-0.264
-0.264
-0.264
-0.266
-0.266
-0.266
-0.266
-0.274
-0.274
-0.274
-0.274
-0.282
-0.282
-0.282
-0.282
-0.294
-0.294
-0.294
-0.294
-0.309
-0.309
-0.309
-0.309
-0.327
-0.327
-0.327
-0.327
-0.348
-0.348
-0.348
-0.348
-0.369
-0.369
-0.369
-0.369
-0.39
-0.39
-0.39
-0.39
-0.411
-0.411
-0.411
-0.411
-0.432
-0.432
-0.432
-0.432
-0.456
-0.456
-0.456
-0.456
-0.474
-0.474
-0.474
-0.474
-0.494
-0.494
-0.494
-0.494
-0.511
-0.511
-0.511
-0.511
-0.528
-0.528
-0.528
-0.528
-0.542
-0.542
-0.542
-0.542
-0.555
-0.555
-0.555
-0.555
-0.567
-0.567
-0.567
-0.567
-0.581
-0.581
-0.581
-0.581
-0.586
-0.586
-0.586
-0.586
-0.594
-0.594
-0.594
-0.594
-0.598
-0.598
-0.598
-0.598
-0.6
-0.6
-0.6
-0.6
-0.602
-0.602
-0.602
-0.602
-0.602
-0.602
-0.602
-0.602
-0.596
-0.596
-0.596
-0.596
-0.59
-0.59
-0.59
-0.59
-0.585
-0.585
-0.585
-0.585
-0.571
-0.571
-0.571
-0.571
-0.553
-0.553
-0.553
-0.553
-0.53
-0.53
-0.53
-0.53
-0.501
-0.501
-0.501
-0.501
-0.465
-0.465
-0.465
-0.465
-0.417
-0.417
-0.417
-0.417
-0.357
-0.357
-0.357
-0.357
-0.29
-0.29
-0.29
-0.29
-0.213
-0.213
-0.213
-0.213
-0.131
-0.131
-0.131
-0.131
-0.044
-0.044
-0.044
-0.044
0.044
0.044
0.044
0.044
0.131
0.131
0.131
0.131
0.211
0.211
0.211
0.211
0.282
0.282
0.282
0.282
0.344
0.344
0.344
0.344
0.39
0.39
0.39
0.39
0.423
0.423
0.423
0.423
0.44
0.44
0.44
0.44
0.446
0.446
0.446
0.446
0.434
0.434
0.434
0.434
0.413
0.413
0.413
0.413
0.374
0.374
0.374
0.374
0.331
0.331
0.331
0.331
0.275
0.275
0.275
0.275
0.207
0.207
0.207
0.207
0.139
0.139
0.139
0.139
0.066
0.066
0.066
0.066
-0.006
-0.006
-0.006
-0.006
-0.077
-0.077
-0.077
-0.077
-0.142
-0.142
-0.142
-0.142
-0.198
-0.198
-0.198
-0.198
-0.246
-0.246
-0.246
-0.246
-0.281
-0.281
-0.281
-0.281
-0.303
-0.303
-0.303
-0.303
-0.319
-0.319
-0.319
-0.319
-0.323
-0.323
-0.323
-0.323
-0.302
-0.302
-0.302
-0.302
-0.294
-0.294
-0.294
-0.294
-0.277
-0.277
-0.277
-0.277
-0.262
-0.262
-0.262
-0.262
-0.244
-0.244
-0.244
-0.244
-0.23
-0.23
-0.23
-0.23
-0.22
-0.22
-0.22
-0.22
-0.212
-0.212
-0.212
-0.212
-0.208
-0.208
-0.208
-0.208
-0.21
-0.21
-0.21
-0.21
-0.214
-0.214
-0.214
-0.214
-0.226
-0.226
-0.226
-0.226
-0.237
-0.237
-0.237
-0.237
-0.254
-0.254
-0.254
-0.254
-0.272
-0.272
-0.272
-0.272
-0.292
-0.292
-0.292
-0.292
-0.314
-0.314
-0.314
-0.314
-0.337
-0.337
-0.337
-0.337
-0.357
-0.357
-0.357
-0.357
-0.382
-0.382
-0.382
-0.382
-0.403
-0.403
-0.403
-0.403
-0.422
-0.422
-0.422
-0.422
-0.442
-0.442
-0.442
-0.442
-0.463
-0.463
-0.463
-0.463
-0.479
-0.479
-0.479
-0.479
-0.495
-0.495
-0.495
-0.495
-0.508
-0.508
-0.508
-0.508
-0.519
-0.519
-0.519
-0.519
-0.531
-0.531
-0.531
-0.531
-0.54
-0.54
-0.54
-0.54
-0.546
-0.546
-0.546
-0.546
-0.55
-0.55
-0.55
-0.55
-0.554
-0.554
-0.554
-0.554
-0.556
-0.556
-0.556
-0.556
-0.552
-0.552
-0.552
-0.552
-0.55
-0.55
-0.55
-0.55
-0.544
-0.544
-0.544
-0.544
-0.539
-0.539
-0.539
-0.539
-0.525
-0.525
-0.525
-0.525
-0.51
-0.51
-0.51
-0.51
-0.491
-0.491
-0.491
-0.491
-0.463
-0.463
-0.463
-0.463
-0.426
-0.426
-0.426
-0.426
-0.379
-0.379
-0.379
-0.379
-0.325
-0.325
-0.325
-0.325
-0.258
-0.258
-0.258
-0.258
-0.185
-0.185
-0.185
-0.185
-0.105
-0.105
-0.105
-0.105
-0.021
-0.021
-0.021
-0.021
0.063
0.063
0.063
0.063
0.147
0.147
0.147
0.147
0.227
0.227
0.227
0.227
0.298
0.298
0.298
0.298
0.361
0.361
0.361
0.361
0.408
0.408
0.408
0.408
0.445
0.445
0.445
0.445
0.464
0.464
0.464
0.464
0.471
0.471
0.471
0.471
0.464
0.464
0.464
0.464
0.443
0.443
0.443
0.443
0.41
0.41
0.41
0.41
0.361
0.361
0.361
0.361
0.307
0.307
0.307
0.307
0.242
0.242
0.242
0.242
0.19
0.19
0.19
0.19
0.117
0.117
0.117
0.117
0.045
0.045
0.045
0.045
-0.025
-0.025
-0.025
-0.025
-0.092
-0.092
-0.092
-0.092
-0.146
-0.146
-0.146
-0.146
-0.194
-0.194
-0.194
-0.194
-0.232
-0.232
-0.232
-0.232
-0.258
-0.258
-0.258
-0.258
-0.273
-0.273
-0.273
-0.273
-0.277
-0.277
-0.277
-0.277
-0.273
-0.273
-0.273
-0.273
-0.262
-0.262
-0.262
-0.262
-0.25
-0.25
-0.25
-0.25
-0.232
-0.232
-0.232
-0.232
-0.214
-0.214
-0.214
-0.214
-0.201
-0.201
-0.201
-0.201
-0.19
-0.19
-0.19
-0.19
-0.18
-0.18
-0.18
-0.18
-0.177
-0.177
-0.177
-0.177
-0.177
-0.177
-0.177
-0.177
-0.182
-0.182
-0.182
-0.182
-0.192
-0.192
-0.192
-0.192
-0.205
-0.205
-0.205
-0.205
-0.222
-0.222
-0.222
-0.222
-0.239
-0.239
-0.239
-0.239
-0.258
-0.258
-0.258
-0.258
-0.28
-0.28
-0.28
-0.28
-0.302
-0.302
-0.302
-0.302
-0.327
-0.327
-0.327
-0.327
-0.347
-0.347
-0.347
-0.347
-0.368
-0.368
-0.368
-0.368
-0.391
-0.391
-0.391
-0.391
-0.409
-0.409
-0.409
-0.409
-0.426
-0.426
-0.426
-0.426
-0.446
-0.446
-0.446
-0.446
-0.461
-0.461
-0.461
-0.461
-0.473
-0.473
-0.473
-0.473
-0.485
-0.485
-0.485
-0.485
-0.494
-0.494
-0.494
-0.494
-0.502
-0.502
-0.502
-0.502
-0.505
-0.505
-0.505
-0.505
-0.509
-0.509
-0.509
-0.509
-0.511
-0.511
-0.511
-0.511
-0.511
-0.511
-0.511
-0.511
-0.511
-0.511
-0.511
-0.511
-0.509
-0.509
-0.509
-0.509
-0.502
-0.502
-0.502
-0.502
-0.496
-0.496
-0.496
-0.496
-0.485
-0.485
-0.485
-0.485
-0.47
-0.47
-0.47
-0.47
-0.451
-0.451
-0.451
-0.451
-0.425
-0.425
-0.425
-0.425
-0.393
-0.393
-0.393
-0.393
-0.349
-0.349
-0.349
-0.349
-0.295
-0.295
-0.295
-0.295
-0.237
-0.237
-0.237
-0.237
-0.168
-0.168
-0.168
-0.168
-0.09
-0.09
-0.09
-0.09
-0.004
-0.004
-0.004
-0.004
0.079
0.079
0.079
0.079
0.164
0.164
0.164
0.164
0.242
0.242
0.242
0.242
0.316
0.316
0.316
0.316
0.406
0.406
0.406
0.406
0.459
0.459
0.459
0.459
0.496
0.496
0.496
0.496
0.52
0.52
0.52
0.52
0.532
0.532
0.532
0.532
0.528
0.528
0.528
0.528
0.509
0.509
0.509
0.509
0.477
0.477
0.477
0.477
0.434
0.434
0.434
0.434
0.382
0.382
0.382
0.382
0.318
0.318
0.318
0.318
0.25
0.25
0.25
0.25
0.178
0.178
0.178
0.178
0.105
0.105
0.105
0.105
0.032
0.032
0.032
0.032
-0.034
-0.034
-0.034
-0.034
-0.094
-0.094
-0.094
-0.094
-0.146
-0.146
-0.146
-0.146
-0.186
-0.186
-0.186
-0.186
-0.214
-0.214
-0.214
-0.214
-0.233
-0.233
-0.233
-0.233
-0.238
-0.238
-0.238
-0.238
-0.238
-0.238
-0.238
-0.238
-0.228
-0.228
-0.228
-0.228
-0.216
-0.216
-0.216
-0.216
-0.199
-0.199
-0.199
-0.199
-0.182
-0.182
-0.182
-0.182
-0.167
-0.167
-0.167
-0.167
-0.154
-0.154
-0.154
-0.154
-0.146
-0.146
-0.146
-0.146
-0.141
-0.141
-0.141
-0.141
-0.142
-0.142
-0.142
-0.142
-0.146
-0.146
-0.146
-0.146
-0.156
-0.156
-0.156
-0.156
-0.169
-0.169
-0.169
-0.169
-0.184
-0.184
-0.184
-0.184
-0.205
-0.205
-0.205
-0.205
-0.222
-0.222
-0.222
-0.222
-0.244
-0.244
-0.244
-0.244
-0.267
-0.267
-0.267
-0.267
-0.289
-0.289
-0.289
-0.289
-0.31
-0.31
-0.31
-0.31
-0.331
-0.331
-0.331
-0.331
-0.351
-0.351
-0.351
-0.351
-0.37
-0.37
-0.37
-0.37
-0.389
-0.389
-0.389
-0.389
-0.406
-0.406
-0.406
-0.406
-0.421
-0.421
-0.421
-0.421
-0.434
-0.434
-0.434
-0.434
-0.444
-0.444
-0.444
-0.444
-0.453
-0.453
-0.453
-0.453
-0.461
-0.461
-0.461
-0.461
-0.468
-0.468
-0.468
-0.468
-0.471
-0.471
-0.471
-0.471
-0.473
-0.473
-0.473
-0.473
-0.473
-0.473
-0.473
-0.473
-0.473
-0.473
-0.473
-0.473
-0.469
-0.469
-0.469
-0.469
-0.466
-0.466
-0.466
-0.466
-0.461
-0.461
-0.461
-0.461
-0.451
-0.451
-0.451
-0.451
-0.438
-0.438
-0.438
-0.438
-0.421
-0.421
-0.421
-0.421
-0.399
-0.399
-0.399
-0.399
-0.366
-0.366
-0.366
-0.366
-0.327
-0.327
-0.327
-0.327
-0.274
-0.274
-0.274
-0.274
-0.213
-0.213
-0.213
-0.213
-0.143
-0.143
-0.143
-0.143
-0.066
-0.066
-0.066
-0.066
0.019
0.019
0.019
0.019
0.107
0.107
0.107
0.107
0.193
0.193
0.193
0.193
0.28
0.28
0.28
0.28
0.356
0.356
0.356
0.356
0.426
0.426
0.426
0.426
0.483
0.483
0.483
0.483
0.526
0.526
0.526
0.526
0.556
0.556
0.556
0.556
0.572
0.572
0.572
0.572
0.572
0.572
0.572
0.572
0.556
0.556
0.556
0.556
0.532
0.532
0.532
0.532
0.494
0.494
0.494
0.494
0.444
0.444
0.444
0.444
0.383
0.383
0.383
0.383
0.317
0.317
0.317
0.317
0.247
0.247
0.247
0.247
0.173
0.173
0.173
0.173
0.1
0.1
0.1
0.1
0.032
0.032
0.032
0.032
-0.034
-0.034
-0.034
-0.034
-0.088
-0.088
-0.088
-0.088
-0.132
-0.132
-0.132
-0.132
-0.168
-0.168
-0.168
-0.168
-0.189
-0.189
-0.189
-0.189
-0.2
-0.2
-0.2
-0.2
-0.202
-0.202
-0.202
-0.202
-0.2
-0.2
-0.2
-0.2
-0.186
-0.186
-0.186
-0.186
-0.173
-0.173
-0.173
-0.173
-0.157
-0.157
-0.157
-0.157
-0.143
-0.143
-0.143
-0.143
-0.128
-0.128
-0.128
-0.128
-0.12
-0.12
-0.12
-0.12
-0.113
-0.113
-0.113
-0.113
-0.111
-0.111
-0.111
-0.111
-0.113
-0.113
-0.113
-0.113
-0.118
-0.118
-0.118
-0.118
-0.128
-0.128
-0.128
-0.128
-0.143
-0.143
-0.143
-0.143
-0.159
-0.159
-0.159
-0.159
-0.175
-0.175
-0.175
-0.175
-0.194
-0.194
-0.194
-0.194
-0.215
-0.215
-0.215
-0.215
-0.235
-0.235
-0.235
-0.235
-0.259
-0.259
-0.259
-0.259
-0.277
-0.277
-0.277
-0.277
-0.298
-0.298
-0.298
-0.298
-0.315
-0.315
-0.315
-0.315
-0.334
-0.334
-0.334
-0.334
-0.351
-0.351
-0.351
-0.351
-0.368
-0.368
-0.368
-0.368
-0.379
-0.379
-0.379
-0.379
-0.391
-0.391
-0.391
-0.391
-0.404
-0.404
-0.404
-0.404
-0.413
-0.413
-0.413
-0.413
-0.42
-0.42
-0.42
-0.42
-0.435
-0.435
-0.435
-0.435
-0.441
-0.441
-0.441
-0.441
-0.443
-0.443
-0.443
-0.443
-0.443
-0.443
-0.443
-0.443
-0.441
-0.441
-0.441
-0.441
-0.437
-0.437
-0.437
-0.437
-0.433
-0.433
-0.433
-0.433
-0.419
-0.419
-0.419
-0.419
-0.408
-0.408
-0.408
-0.408
-0.391
-0.391
-0.391
-0.391
-0.363
-0.363
-0.363
-0.363
-0.329
-0.329
-0.329
-0.329
-0.286
-0.286
-0.286
-0.286
-0.234
-0.234
-0.234
-0.234
-0.17
-0.17
-0.17
-0.17
-0.097
-0.097
-0.097
-0.097
-0.013
-0.013
-0.013
-0.013
0.073
0.073
0.073
0.073
0.165
0.165
0.165
0.165
0.256
0.256
0.256
0.256
0.343
0.343
0.343
0.343
0.421
0.421
0.421
0.421
0.487
0.487
0.487
0.487
0.543
0.543
0.543
0.543
0.584
0.584
0.584
0.584
0.61
0.61
0.61
0.61
0.623
0.623
0.623
0.623
0.617
0.617
0.617
0.617
0.602
0.602
0.602
0.602
0.569
0.569
0.569
0.569
0.526
0.526
0.526
0.526
0.474
0.474
0.474
0.474
0.412
0.412
0.412
0.412
0.341
0.341
0.341
0.341
0.267
0.267
0.267
0.267
0.194
0.194
0.194
0.194
0.118
0.118
0.118
0.118
0.046
0.046
0.046
0.046
-0.019
-0.019
-0.019
-0.019
-0.075
-0.075
-0.075
-0.075
-0.121
-0.121
-0.121
-0.121
-0.152
-0.152
-0.152
-0.152
-0.174
-0.174
-0.174
-0.174
-0.185
-0.185
-0.185
-0.185
-0.188
-0.188
-0.188
-0.188
-0.181
-0.181
-0.181
-0.181
-0.168
-0.168
-0.168
-0.168
-0.154
-0.154
-0.154
-0.154
-0.139
-0.139
-0.139
-0.139
-0.123
-0.123
-0.123
-0.123
-0.114
-0.114
-0.114
-0.114
-0.106
-0.106
-0.106
-0.106
-0.102
-0.102
-0.102
-0.102
-0.104
-0.104
-0.104
-0.104
-0.112
-0.112
-0.112
-0.112
-0.121
-0.121
-0.121
-0.121
-0.132
-0.132
-0.132
-0.132
-0.15
-0.15
-0.15
-0.15
-0.168
-0.168
-0.168
-0.168
-0.19
-0.19
-0.19
-0.19
-0.21
-0.21
-0.21
-0.21
-0.234
-0.234
-0.234
-0.234
-0.257
-0.257
-0.257
-0.257
-0.278
-0.278
-0.278
-0.278
-0.329
-0.329
-0.329
-0.329
-0.35
-0.35
-0.35
-0.35
-0.371
-0.371
-0.371
-0.371
-0.393
-0.393
-0.393
-0.393
-0.41
-0.41
-0.41
-0.41
-0.429
-0.429
-0.429
-0.429
-0.443
-0.443
-0.443
-0.443
-0.459
-0.459
-0.459
-0.459
-0.471
-0.471
-0.471
-0.471
-0.483
-0.483
-0.483
-0.483
-0.491
-0.491
-0.491
-0.491
-0.498
-0.498
-0.498
-0.498
-0.504
-0.504
-0.504
-0.504
-0.508
-0.508
-0.508
-0.508
-0.51
-0.51
-0.51
-0.51
-0.508
-0.508
-0.508
-0.508
-0.506
-0.506
-0.506
-0.506
-0.5
-0.5
-0.5
-0.5
-0.491
-0.491
-0.491
-0.491
-0.477
-0.477
-0.477
-0.477
-0.459
-0.459
-0.459
-0.459
-0.431
-0.431
-0.431
-0.431
-0.399
-0.399
-0.399
-0.399
-0.354
-0.354
-0.354
-0.354
-0.3
-0.3
-0.3
-0.3
-0.233
-0.233
-0.233
-0.233
-0.162
-0.162
-0.162
-0.162
-0.079
-0.079
-0.079
-0.079
0.004
0.004
0.004
0.004
0.092
0.092
0.092
0.092
0.177
0.177
0.177
0.177
0.255
0.255
0.255
0.255
0.324
0.324
0.324
0.324
0.382
0.382
0.382
0.382
0.427
0.427
0.427
0.427
0.461
0.461
0.461
0.461
0.477
0.477
0.477
0.477
0.479
0.479
0.479
0.479
0.468
0.468
0.468
0.468
0.443
0.443
0.443
0.443
0.405
0.405
0.405
0.405
0.354
0.354
0.354
0.354
0.296
0.296
0.296
0.296
0.229
0.229
0.229
0.229
0.154
0.154
0.154
0.154
0.081
0.081
0.081
0.081
0.004
0.004
0.004
0.004
-0.073
-0.073
-0.073
-0.073
-0.141
-0.141
-0.141
-0.141
-0.204
-0.204
-0.204
-0.204
-0.254
-0.254
-0.254
-0.254
-0.296
-0.296
-0.296
-0.296
-0.324
-0.324
-0.324
-0.324
-0.343
-0.343
-0.343
-0.343
-0.348
-0.348
-0.348
-0.348
-0.35
-0.35
-0.35
-0.35
-0.343
-0.343
-0.343
-0.343
-0.331
-0.331
-0.331
-0.331
-0.316
-0.316
-0.316
-0.316
-0.3
-0.3
-0.3
-0.3
-0.287
-0.287
-0.287
-0.287
-0.279
-0.279
-0.279
-0.279
-0.272
-0.272
-0.272
-0.272
-0.27
-0.27
-0.27
-0.27
-0.287
-0.287
-0.287
-0.287
-0.29
-0.29
-0.29
-0.29
-0.302
-0.302
-0.302
-0.302
-0.315
-0.315
-0.315
-0.315
-0.331
-0.331
-0.331
-0.331
-0.349
-0.349
-0.349
-0.349
-0.366
-0.366
-0.366
-0.366
-0.387
-0.387
-0.387
-0.387
-0.409
-0.409
-0.409
-0.409
-0.434
-0.434
-0.434
-0.434
-0.455
-0.455
-0.455
-0.455
-0.475
-0.475
-0.475
-0.475
-0.496
-0.496
-0.496
-0.496
-0.517
-0.517
-0.517
-0.517
-0.536
-0.536
-0.536
-0.536
-0.553
-0.553
-0.553
-0.553
-0.568
-0.568
-0.568
-0.568
-0.585
-0.585
-0.585
-0.585
-0.598
-0.598
-0.598
-0.598
-0.608
-0.608
-0.608
-0.608
-0.617
-0.617
-0.617
-0.617
-0.625
-0.625
-0.625
-0.625
-0.628
-0.628
-0.628
-0.628
-0.63
-0.63
-0.63
-0.63
-0.632
-0.632
-0.632
-0.632
-0.63
-0.63
-0.63
-0.63
-0.626
-0.626
-0.626
-0.626
-0.621
-0.621
-0.621
-0.621
-0.614
-0.614
-0.614
-0.614
-0.6
-0.6
-0.6
-0.6
-0.585
-0.585
-0.585
-0.585
-0.56
-0.56
-0.56
-0.56
-0.53
-0.53
-0.53
-0.53
-0.488
-0.488
-0.488
-0.488
-0.444
-0.444
-0.444
-0.444
-0.385
-0.385
-0.385
-0.385
-0.315
-0.315
-0.315
-0.315
-0.241
-0.241
-0.241
-0.241
-0.159
-0.159
-0.159
-0.159
-0.072
-0.072
-0.072
-0.072
0.015
0.015
0.015
0.015
0.098
0.098
0.098
0.098
0.173
0.173
0.173
0.173
0.241
0.241
0.241
0.241
0.3
0.3
0.3
0.3
0.345
0.345
0.345
0.345
0.376
0.376
0.376
0.376
0.391
0.391
0.391
0.391
0.391
0.391
0.391
0.391
0.381
0.381
0.381
0.381
0.354
0.354
0.354
0.354
0.317
0.317
0.317
0.317
0.27
0.27
0.27
0.27
0.213
0.213
0.213
0.213
0.149
0.149
0.149
0.149
0.079
0.079
0.079
0.079
0.005
0.005
0.005
0.005
-0.066
-0.066
-0.066
-0.066
-0.136
-0.136
-0.136
-0.136
-0.2
-0.2
-0.2
-0.2
-0.257
-0.257
-0.257
-0.257
-0.3
-0.3
-0.3
-0.3
-0.336
-0.336
-0.336
-0.336
-0.356
-0.356
-0.356
-0.356
-0.348
-0.348
-0.348
-0.348
-0.35
-0.35
-0.35
-0.35
-0.343
-0.343
-0.343
-0.343
-0.333
-0.333
-0.333
-0.333
-0.317
-0.317
-0.317
-0.317
-0.3
-0.3
-0.3
-0.3
-0.281
-0.281
-0.281
-0.281
-0.269
-0.269
-0.269
-0.269
-0.259
-0.259
-0.259
-0.259
-0.252
-0.252
-0.252
-0.252
-0.248
-0.248
-0.248
-0.248
-0.248
-0.248
-0.248
-0.248
-0.254
-0.254
-0.254
-0.254
-0.265
-0.265
-0.265
-0.265
-0.276
-0.276
-0.276
-0.276
-0.292
-0.292
-0.292
-0.292
-0.311
-0.311
-0.311
-0.311
-0.33
-0.33
-0.33
-0.33
-0.35
-0.35
-0.35
-0.35
-0.37
-0.37
-0.37
-0.37
-0.393
-0.393
-0.393
-0.393
-0.413
-0.413
-0.413
-0.413
-0.435
-0.435
-0.435
-0.435
-0.456
-0.456
-0.456
-0.456
-0.474
-0.474
-0.474
-0.474
-0.492
-0.492
-0.492
-0.492
-0.507
-0.507
-0.507
-0.507
-0.52
-0.52
-0.52
-0.52
-0.535
-0.535
-0.535
-0.535
-0.546
-0.546
-0.546
-0.546
-0.553
-0.553
-0.553
-0.553
-0.563
-0.563
-0.563
-0.563
-0.569
-0.569
-0.569
-0.569
-0.57
-0.57
-0.57
-0.57
-0.57
-0.57
-0.57
-0.57
-0.57
-0.57
-0.57
-0.57
-0.567
-0.567
-0.567
-0.567
-0.563
-0.563
-0.563
-0.563
-0.557
-0.557
-0.557
-0.557
-0.548
-0.548
-0.548
-0.548
-0.533
-0.533
-0.533
-0.533
-0.518
-0.518
-0.518
-0.518
-0.492
-0.492
-0.492
-0.492
-0.463
-0.463
-0.463
-0.463
-0.42
-0.42
-0.42
-0.42
-0.374
-0.374
-0.374
-0.374
-0.315
-0.315
-0.315
-0.315
-0.244
-0.244
-0.244
-0.244
-0.169
-0.169
-0.169
-0.169
-0.089
-0.089
-0.089
-0.089
-0.002
-0.002
-0.002
-0.002
0.082
0.082
0.082
0.082
0.167
0.167
0.167
0.167
0.241
0.241
0.241
0.241
0.307
0.307
0.307
0.307
0.363
0.363
0.363
0.363
0.406
0.406
0.406
0.406
0.433
0.433
0.433
0.433
0.448
0.448
0.448
0.448
0.448
0.448
0.448
0.448
0.435
0.435
0.435
0.435
0.407
0.407
0.407
0.407
0.37
0.37
0.37
0.37
0.321
0.321
0.321
0.321
0.283
0.283
0.283
0.283
0.218
0.218
0.218
0.218

